time(s),temp_rise(℃）
1,0.2
2,0.2
3,0.25
4,0.25
5,0.25
6,0.4
7,0.6
8,0.8
9,1.15
10,1.45
11,1.7
12,2.05
13,2.45
14,2.8
15,3.15
16,3.45
17,3.85
18,4.2
19,4.55
20,4.95
21,5.45
22,5.8
23,6.1
24,6.45
25,6.75
26,7.05
27,7.35
28,7.6
29,7.85
30,8.15
31,8.45
32,8.65
33,8.9
34,9.2
35,9.5
36,9.7
37,9.95
38,10.2
39,10.5
40,10.7
41,11
42,11.3
43,11.45
44,11.7
45,11.9
46,12.1
47,12.25
48,12.45
49,12.65
50,12.9
51,13.05
52,13.2
53,13.3
54,13.45
55,13.55
56,13.65
57,13.8
58,14
59,14.15
60,14.35
61,14.45
62,14.7
63,14.9
64,15.05
65,15.2
66,15.35
67,15.6
68,15.7
69,15.75
70,15.9
71,16
72,16.25
73,16.3
74,16.35
75,16.4
76,16.5
77,16.65
78,16.8
79,17
80,17.15
81,17.15
82,17.2
83,17.25
84,17.35
85,17.35
86,17.45
87,17.45
88,17.55
89,17.65
90,17.7
91,17.75
92,17.75
93,17.85
94,18
95,18.15
96,18.15
97,18.25
98,18.35
99,18.45
100,18.5
101,18.6
102,18.7
103,18.75
104,18.85
105,18.95
106,19.05
107,19.05
108,19.1
109,19.15
110,19.15
111,19.15
112,19.3
113,19.3
114,19.3
115,19.25
116,19.1
117,19.05
118,19.05
119,19.05
120,19.1
121,19.05
122,19.05
123,19
124,19.15
125,19.15
126,19.3
127,19.3
128,19.3
129,19.2
130,19.2
131,19.3
132,19.3
133,19.3
134,19.3
135,19.25
136,19.25
137,19.3
138,19.25
139,19.4
140,19.4
141,19.5
142,19.5
143,19.45
144,19.45
145,19.35
146,19.35
147,19.45
148,19.5
149,19.45
150,19.35
151,19.35
152,19.4
153,19.4
154,19.5
155,19.55
156,19.5
157,19.4
158,19.55
159,19.55
160,19.55
161,19.65
162,19.75
163,19.9
164,19.9
165,20
166,20.1
167,20.15
168,20.3
169,20.4
170,20.35
171,20.35
172,20.45
173,20.4
174,20.4
175,20.4
176,20.4
177,20.3
178,20.4
179,20.35
180,20.45
181,20.55
182,20.55
183,20.6
184,20.6
185,20.6
186,20.6
187,20.6
188,20.65
189,20.7
190,20.7
191,20.7
192,20.7
193,20.7
194,20.75
195,20.75
196,20.75
197,20.8
198,20.85
199,20.9
200,20.85
201,20.9
202,20.9
203,20.85
204,20.85
205,20.9
206,20.9
207,21
208,21.05
209,21
210,20.95
211,20.85
212,20.75
213,20.7
214,20.65
215,20.65
216,20.65
217,20.75
218,20.85
219,20.85
220,20.9
221,20.9
222,20.95
223,20.9
224,20.9
225,20.9
226,20.95
227,20.95
228,20.9
229,20.85
230,20.8
231,20.8
232,20.75
233,20.55
234,20.55
235,20.5
236,20.5
237,20.45
238,20.55
239,20.55
240,20.55
241,20.55
242,20.55
243,20.55
244,20.45
245,20.4
246,20.35
247,20.35
248,20.25
249,20.25
250,20.2
251,20.2
252,20.15
253,20.1
254,20.1
255,20
256,20.05
257,20.05
258,20
259,20.05
260,20.15
261,20.1
262,20.2
263,20.2
264,19.9
265,19.85
266,19.7
267,19.6
268,20.05
269,20.2
270,20.2
271,20.2
272,20.15
273,19.95
274,20
275,20.05
276,20.2
277,20.6
278,20.7
279,20.75
280,20.6
281,20.35
282,20.15
283,20
284,19.9
285,19.9
286,19.75
287,19.7
288,19.7
289,19.65
290,19.55
291,19.45
292,19.4
293,19.5
294,19.5
295,19.35
296,19.3
297,19.35
298,19.45
299,19.4
300,19.55
301,19.55
302,19.65
303,19.6
304,19.45
305,19.45
306,19.4
307,19.35
308,19.25
309,19.15
310,19.05
311,19.05
312,19
313,19.05
314,18.95
315,19.05
316,19.1
317,19.1
318,19.1
319,19.15
320,19.25
321,19.4
322,19.55
323,19.75
324,19.95
325,20
326,20
327,20.05
328,20.2
329,20.1
330,20.15
331,20.2
332,20.25
333,20.25
334,20.35
335,20.35
336,20.4
337,20.5
338,20.55
339,20.55
340,20.6
341,20.6
342,20.7
343,20.7
344,20.75
345,20.75
346,20.8
347,20.8
348,20.75
349,20.75
350,20.75
351,20.75
352,20.8
353,20.85
354,20.95
355,20.95
356,20.95
357,20.95
358,21.1
359,21.15
360,21.1
361,20.95
362,20.75
363,20.65
364,20.55
365,20.45
366,20.45
367,20.4
368,20.3
369,20.3
370,20.35
371,20.35
372,20.4
373,20.4
374,20.4
375,20.35
376,20.35
377,20.4
378,20.45
379,20.55
380,20.6
381,20.65
382,20.5
383,20.4
384,20.4
385,20.35
386,20.25
387,20.1
388,20.2
389,20.45
390,20.65
391,20.6
392,20.6
393,20.8
394,20.9
395,20.95
396,20.95
397,20.95
398,20.9
399,20.75
400,20.8
401,20.85
402,20.85
403,21
404,20.95
405,21.1
406,21.1
407,21.15
408,21.3
409,21.3
410,21.45
411,21.5
412,21.55
413,21.55
414,21.55
415,21.5
416,21.5
417,21.5
418,21.5
419,21.55
420,21.55
421,21.5
422,21.6
423,21.75
424,21.75
425,21.7
426,21.8
427,21.75
428,21.65
429,21.6
430,21.55
431,21.5
432,21.4
433,21.3
434,21.35
435,21.35
436,21.4
437,21.4
438,21.45
439,21.35
440,21.35
441,21.25
442,21.2
443,21.2
444,21.15
445,21.1
446,21.05
447,21
448,20.95
449,20.8
450,20.7
451,20.6
452,20.5
453,20.45
454,20.35
455,20.25
456,20.1
457,20
458,19.85
459,19.85
460,19.85
461,19.75
462,19.65
463,19.6
464,19.55
465,19.65
466,19.7
467,19.7
468,19.7
469,19.75
470,19.65
471,19.6
472,19.65
473,19.8
474,19.85
475,19.9
476,20.1
477,20.2
478,20.15
479,20.2
480,20.25
481,20.25
482,20.25
483,20.3
484,20.3
485,20.25
486,20.3
487,20.25
488,20.25
489,20.15
490,20.25
491,20.2
492,20.15
493,20.15
494,20.15
495,20.15
496,20.1
497,20.15
498,20.15
499,20.15
500,20.15
501,20.1
502,20.15
503,20.2
504,20.15
505,20.1
506,20.05
507,20.05
508,20.05
509,20.05
510,20.05
511,20.15
512,20.25
513,20.25
514,20.35
515,20.35
516,20.4
517,20.4
518,20.4
519,20.4
520,20.4
521,20.45
522,20.5
523,20.6
524,20.65
525,20.7
526,20.7
527,20.85
528,20.9
529,21
530,21.1
531,21.1
532,21.1
533,21
534,20.9
535,20.8
536,20.75
537,20.7
538,20.7
539,20.7
540,20.65
541,20.65
542,20.7
543,20.65
544,20.65
545,20.7
546,20.7
547,20.6
548,20.6
549,20.55
550,20.45
551,20.35
552,20.25
553,20.15
554,20.15
555,20.15
556,20.15
557,20.35
558,20.45
559,20.55
560,20.6
561,20.65
562,20.5
563,20.55
564,20.6
565,20.65
566,20.7
567,20.65
568,20.75
569,20.8
570,20.9
571,21.05
572,21.1
573,20.95
574,20.95
575,21.2
576,21.35
577,21.3
578,21.3
579,21.2
580,21.15
581,21.1
582,21.1
583,21.05
584,21.1
585,21.2
586,21.2
587,21.1
588,21.15
589,21.15
590,21.2
591,21.3
592,21.5
593,21.5
594,21.6
595,21.6
596,21.55
597,21.55
598,21.15
599,20.05