time(s),temp_rise(℃）
1,0.9
2,0.9
3,0.9
4,0.9
5,0.9
6,1.2
7,1.5
8,1.9
9,2.4
10,2.8
11,3.4
12,4
13,4.6
14,5.2
15,5.9
16,6.6
17,7.2
18,7.8
19,8.3
20,8.9
21,9.4
22,10.1
23,10.7
24,11.4
25,12.2
26,12.9
27,13.5
28,14.3
29,15.1
30,15.9
31,16.7
32,17.3
33,18.1
34,18.6
35,19.3
36,19.8
37,20.5
38,21.2
39,21.8
40,22.6
41,23.2
42,23.9
43,24.5
44,25.1
45,25.5
46,26.1
47,26.6
48,27
49,27.5
50,28
51,28.4
52,28.9
53,29.3
54,29.9
55,30.4
56,30.7
57,31.2
58,31.6
59,32.1
60,32.4
61,32.8
62,33.3
63,33.7
64,33.5
65,33.9
66,34.4
67,35.1
68,35.4
69,35.6
70,35.9
71,36.2
72,36.5
73,36.7
74,36.9
75,37.2
76,37.2
77,37
78,37.1
79,37
80,36.7
81,36.4
82,36.6
83,36.9
84,36.8
85,36.9
86,37.3
87,37.4
88,37.8
89,38.2
90,38.8
91,39.3
92,39.9
93,40.4
94,40.8
95,41.1
96,41.4
97,41.8
98,41.6
99,41.7
100,41.4
101,41.5
102,41.4
103,41.5
104,41.8
105,41.7
106,41.3
107,41.3
108,41.4
109,41.6
110,41.6
111,42.2
112,42.6
113,43
114,43.3
115,43.6
116,43.5
117,43.2
118,43.1
119,43.3
120,43.5
121,43.7
122,43.9
123,44
124,44.3
125,44.6
126,44.6
127,44.8
128,45.2
129,45.5
130,45.9
131,45.8
132,45.9
133,45.7
134,45.7
135,46.1
136,46.1
137,46.2
138,46
139,46.2
140,46.4
141,46.8
142,47.3
143,47.2
144,47.3
145,47.5
146,47.8
147,48.1
148,48.3
149,48.4
150,48.7
151,48.6
152,48.8
153,48.9
154,49.2
155,49.1
156,49.3
157,49.5
158,49.8
159,49.6
160,49.2
161,48.8
162,48.2
163,48.2
164,48.1
165,48.2
166,48.3
167,48
168,48.1
169,48
170,48.1
171,48.2
172,48.5
173,48.8
174,49.1
175,49.4
176,49.7
177,49.9
178,50.1
179,50.2
180,50.3
181,50.1
182,49.6
183,49.3
184,49.1
185,48.8
186,48.4
187,48.1
188,48.1
189,47.9
190,47.6
191,47.9
192,47.8
193,48
194,47.8
195,48.1
196,47.8
197,48
198,48
199,47.8
200,47.9
201,47.8
202,47.8
203,47.9
204,47.7
205,47.6
206,47.2
207,47
208,47.2
209,47.4
210,47.4
211,47.3
212,47.3
213,48.1
214,47.7
215,47.1
216,46.8
217,47.3
218,47.8
219,48.3
220,48.6
221,48.5
222,49
223,49.1
224,49.6
225,50
226,49.7
227,49.2
228,48.7
229,48.6
230,49
231,48.9
232,49.1
233,49
234,48.9
235,49
236,49.2
237,48.8
238,48.7
239,48.5
240,48.9
241,48.8
242,49.1
243,48.9
244,48.6
245,49.2
246,49.7
247,50
248,50.1
249,49.9
250,50.4
251,50.5
252,49.8
253,49.7
254,49.8
255,49.3
256,48.9
257,48.7
258,49
259,49
260,48.8
261,49
262,48.8
263,48.6
264,48.5
265,48.6
266,48.3
267,48.2
268,48.6
269,48.8
270,48
271,47.7
272,47.8
273,47.9
274,48.2
275,48.5
276,49
277,48.9
278,48.8
279,48.6
280,48.6
281,48.5
282,48.5
283,49
284,49
285,49.2
286,49.4
287,49.2
288,49.3
289,49
290,49.4
291,49.5
292,49.9
293,49.9
294,50.4
295,50.6
296,50.7
297,50.3
298,50.6
299,50.6
300,51
301,51.3
302,51.3
303,51.1
304,51.3
305,50.6
306,50.2
307,49.8
308,49.8
309,49.9
310,50.3
311,50.6
312,50.3
313,50.2
314,50.6
315,50.7
316,50.5
317,50.5
318,50.3
319,50
320,49.9
321,49.6
322,49.4
323,49.2
324,49.3
325,49.4
326,50
327,50.3
328,50.5
329,50.9
330,51.2
331,51
332,50.9
333,51
334,50.9
335,51.1
336,51.3
337,51.2
338,51.2
339,51.4
340,51.2
341,51.3
342,51.3
343,51.3
344,51.7
345,51.6
346,52
347,52.2
348,52.3
349,52.4
350,52.4
351,52.7
352,52.8
353,52.9
354,52.5
355,52.5
356,52.2
357,52.4
358,51.9
359,51.8
360,51.2
361,51.2
362,50.9
363,50.4
364,50.8
365,51
366,50.7
367,51
368,51.1
369,50.8
370,50.5
371,50.8
372,51.1
373,51
374,50.5
375,50.9
376,51.4
377,51.3
378,50.5
379,50.2
380,50.1
381,49.7
382,49.5
383,49.2
384,48.7
385,48.4
386,48.2
387,48.2
388,47.8
389,47.2
390,46.6
391,46.6
392,47.5
393,48
394,48.1
395,48.4
396,48.4
397,48.4
398,48.3
399,48.5
400,48.6
401,48.6
402,48.3
403,48.6
404,48.7
405,48.9
406,48.2
407,47.8
408,46.5
409,45.7
410,46.1
411,46.7
412,46.8
413,46.8
414,47
415,47.3
416,47.3
417,47
418,46.9
419,47.5
420,47.4
421,47.9
422,48.2
423,48.4
424,48.4
425,49
426,49.3
427,48.9
428,48.4
429,48.6
430,48.2
431,48.7
432,49.2
433,49.5
434,50
435,50.4
436,50.6
437,50.8
438,51
439,51.1
440,51.2
441,51.4
442,51.3
443,51.4
444,51.5
445,51.7
446,51.2
447,51
448,50.8
449,50.4
450,50.4
451,50.3
452,50.5
453,50.4
454,50.1
455,50.5
456,50.7
457,50.9
458,51.2
459,51.3
460,51.3
461,51.2
462,51.1
463,50.9
464,50.6
465,50.2
466,50.1
467,50.5
468,50.8
469,51.1
470,51.3
471,50.9
472,50.6
473,50.3
474,50.5
475,50.6
476,50.1
477,50.3
478,50.7
479,51
480,51.3
481,51.3
482,51.4
483,51.1
484,50.6
485,50.1
486,49.7
487,49.5
488,49.7
489,49.5
490,49.3
491,49.5
492,49.5
493,49.5
494,50
495,50.3
496,50.3
497,50.5
498,50.8
499,50.9
500,50.8
501,50.8
502,50.6
503,50
504,49.9
505,49.5
506,49.2
507,49.2
508,49.1
509,49.3
510,49.7
511,49.8
512,49.5
513,49.7
514,49.6
515,49.7
516,49.1
517,49.2
518,49.8
519,50.4
520,50.8
521,50.9
522,51
523,51.3
524,51.5
525,51.6
526,51.5
527,51.4
528,51.5
529,51.6
530,51.7
531,51.7
532,51.5
533,51
534,50.3
535,50.4
536,50.3
537,50.7
538,50.5
539,50.3
540,50
541,49.7
542,49.3
543,49.3
544,49.5
545,49.9
546,50
547,49.9
548,49.7
549,50
550,49.8
551,49.3
552,49.2
553,49.3
554,48.7
555,48.2
556,47.7
557,47.4
558,47.4
559,47.7
560,47.6
561,47.7
562,47.7
563,47.6
564,47.4
565,47.3
566,47.5
567,47.4
568,47.6
569,47.9
570,48
571,47.8
572,47.8
573,47.7
574,48.1
575,48.1
576,47.8
577,47.6
578,48.1
579,48.8
580,48.9
581,49.1
582,49.6
583,50
584,50.3
585,50.1
586,50.3
587,50.2
588,50.6
589,51
590,51.3
591,51.3
592,51.4
593,51.6
594,51.4
595,51.4
596,51.5
597,51.7
598,52
599,51.9
600,51.8