time(s),temp_rise(℃）
8,0.17 
8.5,0.30 
9,0.43 
9.5,0.60 
10,0.75 
10.5,0.92 
11,1.10 
11.5,1.23 
12,1.45 
12.5,1.60 
13,1.75 
13.5,1.92 
14,2.07 
14.5,2.17 
15,2.30 
15.5,2.42 
16,2.55 
16.5,2.70 
17,2.87 
17.5,3.00 
18,3.12 
18.5,3.27 
19,3.43 
19.5,3.60 
20,3.77 
20.5,3.92 
21,4.10 
21.5,4.15 
22,4.30 
22.5,4.45 
23,4.53 
23.5,4.63 
24,4.75 
24.5,4.93 
25,4.98 
25.5,5.10 
26,5.18 
26.5,5.30 
27,5.40 
27.5,5.52 
28,5.62 
28.5,5.72 
29,5.78 
29.5,5.83 
30,5.93 
30.5,6.02 
31,6.08 
31.5,6.08 
32,6.08 
32.5,6.15 
33,6.20 
33.5,6.22 
34,6.25 
34.5,6.30 
35,6.30 
35.5,6.38 
36,6.43 
36.5,6.50 
37,6.55 
37.5,6.62 
38,6.65 
38.5,6.72 
39,6.77 
39.5,6.88 
40,6.92 
40.5,6.97 
41,7.00 
41.5,7.12 
42,7.15 
42.5,7.25 
43,7.35 
43.5,7.45 
44,7.55 
44.5,7.62 
45,7.68 
45.5,7.77 
46,7.83 
46.5,7.87 
47,7.90 
47.5,7.95 
48,7.97 
48.5,7.93 
49,8.05 
49.5,8.12 
50,8.17 
50.5,8.30 
51,8.37 
51.5,8.35 
52,8.35 
52.5,8.37 
53,8.38 
53.5,8.43 
54,8.48 
54.5,8.53 
55,8.55 
55.5,8.53 
56,8.57 
56.5,8.62 
57,8.68 
57.5,8.83 
58,8.87 
58.5,8.90 
59,8.90 
59.5,8.92 
60,8.95 
60.5,8.95 
61,9.00 
61.5,9.07 
62,9.10 
62.5,9.13 
63,9.22 
63.5,9.32 
64,9.23 
64.5,9.32 
65,9.45 
65.5,9.43 
66,9.53 
66.5,9.63 
67,9.73 
67.5,9.78 
68,9.83 
68.5,9.87 
69,9.88 
69.5,9.90 
70,9.90 
70.5,9.93 
71,9.95 
71.5,9.95 
72,9.92 
72.5,9.97 
73,9.97 
73.5,10.00 
74,10.02 
74.5,10.05 
75,9.98 
75.5,10.03 
76,10.03 
76.5,10.00 
77,10.00 
77.5,9.97 
78,9.93 
78.5,9.97 
79,10.05 
79.5,10.22 
80,10.30 
80.5,10.32 
81,10.35 
81.5,10.42 
82,10.47 
82.5,10.48 
83,10.52 
83.5,10.52 
84,10.58 
84.5,10.58 
85,10.55 
85.5,10.47 
86,10.45 
86.5,10.48 
87,10.47 
87.5,10.40 
88,10.37 
88.5,10.37 
89,10.33 
89.5,10.30 
90,10.33 
90.5,10.35 
91,10.47 
91.5,10.42 
92,10.45 
92.5,10.43 
93,10.35 
93.5,10.23 
94,10.22 
94.5,10.22 
95,10.18 
95.5,10.17 
96,10.13 
96.5,10.13 
97,10.12 
97.5,10.13 
98,10.12 
98.5,10.08 
99,10.20 
99.5,10.28 
100,10.27 
100.5,10.20 
101,10.20 
101.5,10.22 
102,10.32 
102.5,10.27 
103,10.33 
103.5,10.45 
104,10.43 
104.5,10.43 
105,10.53 
105.5,10.50 
106,10.47 
106.5,10.42 
107,10.35 
107.5,10.37 
108,10.32 
108.5,10.35 
109,10.38 
109.5,10.48 
110,10.47 
110.5,10.43 
111,10.37 
111.5,10.37 
112,10.45 
112.5,10.52 
113,10.55 
113.5,10.57 
114,10.50 
114.5,10.38 
115,10.35 
115.5,10.37 
116,10.33 
116.5,10.38 
117,10.45 
117.5,10.53 
118,10.67 
118.5,10.77 
119,10.75 
119.5,10.82 
120,10.82 
120.5,10.85 
121,10.87 
121.5,10.83 
122,10.77 
122.5,10.67 
123,10.60 
123.5,10.60 
124,10.58 
124.5,10.55 
125,10.62 
125.5,10.62 
126,10.65 
126.5,10.68 
127,10.65 
127.5,10.65 
128,10.62 
128.5,10.60 
129,10.63 
129.5,10.57 
130,10.57 
130.5,10.60 
131,10.62 
131.5,10.65 
132,10.62 
132.5,10.65 
133,10.58 
133.5,10.58 
134,10.63 
134.5,10.72 
135,10.80 
135.5,10.97 
136,11.12 
136.5,11.20 
137,11.22 
137.5,11.22 
138,11.28 
138.5,11.27 
139,11.22 
139.5,11.15 
140,11.13 
140.5,11.10 
141,11.08 
141.5,11.07 
142,11.05 
142.5,10.95 
143,11.00 
143.5,10.97 
144,10.85 
144.5,10.82 
145,10.83 
145.5,10.82 
146,10.82 
146.5,10.77 
147,10.75 
147.5,10.80 
148,10.83 
148.5,10.83 
149,10.82 
149.5,10.82 
150,10.82 
150.5,10.83 
151,10.80 
151.5,10.85 
152,10.88 
152.5,10.92 
153,10.98 
153.5,11.08 
154,11.12 
154.5,11.03 
155,10.90 
155.5,10.87 
156,10.93 
156.5,10.87 
157,10.73 
157.5,10.68 
158,10.62 
158.5,10.63 
159,10.60 
159.5,10.62 
160,10.62 
160.5,10.63 
161,10.63 
161.5,10.68 
162,10.67 
162.5,10.70 
163,10.60 
163.5,10.53 
164,10.43 
164.5,10.42 
165,10.37 
165.5,10.47 
166,10.43 
166.5,10.50 
167,10.43 
167.5,10.42 
168,10.48 
168.5,10.53 
169,10.62 
169.5,10.62 
170,10.67 
170.5,10.68 
171,10.73 
171.5,10.78 
172,10.72 
172.5,10.67 
173,10.63 
173.5,10.65 
174,10.70 
174.5,10.72 
175,10.80 
175.5,10.85 
176,10.83 
176.5,10.87 
177,10.87 
177.5,10.83 
178,10.85 
178.5,10.90 
179,10.95 
179.5,11.02 
180,10.93 
180.5,10.93 
181,10.97 
181.5,10.97 
182,10.98 
182.5,10.87 
183,10.93 
183.5,10.88 
184,10.80 
184.5,10.80 
185,10.82 
185.5,10.90 
186,10.98 
186.5,11.07 
187,11.17 
187.5,11.13 
188,11.10 
188.5,11.10 
189,11.08 
189.5,11.15 
190,11.28 
190.5,11.33 
191,11.30 
191.5,11.32 
192,11.28 
192.5,11.23 
193,11.22 
193.5,11.22 
194,11.13 
194.5,11.15 
195,11.17 
195.5,11.27 
196,11.30 
196.5,11.27 
197,11.37 
197.5,11.38 
198,11.45 
198.5,11.42 
199,11.32 
199.5,11.25 
200,11.20 
200.5,11.17 
201,11.20 
201.5,11.20 
202,11.20 
202.5,11.13 
203,11.08 
203.5,11.05 
204,10.97 
204.5,10.95 
205,10.97 
205.5,10.97 
206,11.00 
206.5,11.07 
207,11.15 
207.5,11.15 
208,11.25 
208.5,11.33 
209,11.28 
209.5,11.28 
210,11.18 
210.5,11.17 
211,11.08 
211.5,11.03 
212,10.93 
212.5,10.93 
213,10.92 
213.5,10.92 
214,10.97 
214.5,10.98 
215,11.00 
215.5,11.02 
216,11.12 
216.5,11.08 
217,11.10 
217.5,11.13 
218,11.20 
218.5,11.23 
219,11.20 
219.5,11.15 
220,11.18 
220.5,11.08 
221,11.10 
221.5,11.07 
222,11.00 
222.5,10.95 
223,10.92 
223.5,10.87 
224,10.80 
224.5,10.80 
225,10.80 
225.5,10.82 
226,10.78 
226.5,10.78 
227,10.80 
227.5,10.83 
228,10.78 
228.5,10.77 
229,10.72 
229.5,10.77 
230,10.73 
230.5,10.77 
231,10.80 
231.5,10.85 
232,10.85 
232.5,10.85 
233,10.92 
233.5,10.92 
234,10.90 
234.5,10.95 
235,10.93 
235.5,10.92 
236,10.87 
236.5,10.87 
237,10.90 
237.5,10.87 
238,10.80 
238.5,10.77 
239,10.77 
239.5,10.82 
240,10.85 
240.5,10.90 
241,10.92 
241.5,11.00 
242,11.00 
242.5,11.03 
243,11.03 
243.5,11.05 
244,11.08 
244.5,11.03 
245,10.92 
245.5,10.83 
246,10.78 
246.5,10.77 
247,10.83 
247.5,10.80 
248,10.87 
248.5,10.90 
249,10.92 
249.5,10.93 
250,10.97 
250.5,10.97 
251,10.88 
251.5,10.92 
252,10.93 
252.5,10.87 
253,10.90 
253.5,10.98 
254,11.05 
254.5,11.07 
255,11.05 
255.5,11.13 
256,11.18 
256.5,11.15 
257,11.15 
257.5,11.10 
258,11.12 
258.5,11.10 
259,11.13 
259.5,11.10 
260,11.10 
260.5,11.10 
261,11.17 
261.5,11.17 
262,11.17 
262.5,11.20 
263,11.23 
263.5,11.30 
264,11.33 
264.5,11.38 
265,11.38 
265.5,11.33 
266,11.33 
266.5,11.28 
267,11.25 
267.5,11.20 
268,11.17 
268.5,11.18 
269,11.20 
269.5,11.22 
270,11.25 
270.5,11.32 
271,11.32 
271.5,11.37 
272,11.33 
272.5,11.35 
273,11.27 
273.5,11.25 
274,11.22 
274.5,11.20 
275,11.28 
275.5,11.25 
276,11.23 
276.5,11.20 
277,11.25 
277.5,11.20 
278,11.25 
278.5,11.23 
279,11.33 
279.5,11.40 
280,11.40 
280.5,11.42 
281,11.37 
281.5,11.28 
282,11.35 
282.5,11.35 
283,11.30 
283.5,11.33 
284,11.38 
284.5,11.42 
285,11.38 
285.5,11.37 
286,11.33 
286.5,11.27 
287,11.08 
287.5,11.03 
288,10.93 
288.5,10.87 
289,10.83 
289.5,10.82 
290,10.88 
290.5,10.92 
291,11.00 
291.5,11.07 
292,11.15 
292.5,11.17 
293,11.23 
293.5,11.22 
294,11.27 
294.5,11.25 
295,11.25 
295.5,11.25 
296,11.30 
296.5,11.35 
297,11.30 
297.5,11.32 
298,11.37 
298.5,11.38 
299,11.38 
299.5,11.45 
300,11.43 
300.5,11.45 
301,11.45 
301.5,11.50 
302,11.50 
302.5,11.42 
303,11.37 
303.5,11.30 
304,11.27 
304.5,11.25 
305,11.30 
305.5,11.43 
306,11.43 
306.5,11.45 
307,11.50 
307.5,11.47 
308,11.45 
308.5,11.43 
309,11.40 
309.5,11.43 
310,11.35 
310.5,11.38 
311,11.40 
311.5,11.37 
312,11.42 
312.5,11.38 
313,11.40 
313.5,11.43 
314,11.37 
314.5,11.35 
315,11.33 
315.5,11.40 
316,11.35 
316.5,11.33 
317,11.30 
317.5,11.25 
318,11.28 
318.5,11.23 
319,11.23 
319.5,11.25 
320,11.23 
320.5,11.23 
321,11.30 
321.5,11.32 
322,11.27 
322.5,11.32 
323,11.35 
323.5,11.33 
324,11.32 
324.5,11.25 
325,11.23 
325.5,11.25 
326,11.18 
326.5,11.23 
327,11.33 
327.5,11.47 
328,11.52 
328.5,11.58 
329,11.58 
329.5,11.65 
330,11.67 
330.5,11.70 
331,11.77 
331.5,11.70 
332,11.63 
332.5,11.62 
333,11.58 
333.5,11.63 
334,11.57 
334.5,11.55 
335,11.48 
335.5,11.50 
336,11.48 
336.5,11.47 
337,11.50 
337.5,11.48 
338,11.43 
338.5,11.42 
339,11.40 
339.5,11.37 
340,11.37 
340.5,11.32 
341,11.28 
341.5,11.28 
342,11.30 
342.5,11.30 
343,11.27 
343.5,11.23 
344,11.27 
344.5,11.28 
345,11.25 
345.5,11.32 
346,11.33 
346.5,11.33 
347,11.27 
347.5,11.25 
348,11.23 
348.5,11.25 
349,11.30 
349.5,11.33 
350,11.30 
350.5,11.27 
351,11.22 
351.5,11.28 
352,11.30 
352.5,11.25 
353,11.25 
353.5,11.25 
354,11.25 
354.5,11.18 
355,11.22 
355.5,11.18 
356,11.18 
356.5,11.13 
357,11.27 
357.5,11.33 
358,11.23 
358.5,11.22 
359,11.20 
359.5,11.22 
360,11.22 
360.5,11.18 
361,11.13 
361.5,11.15 
362,11.20 
362.5,11.10 
363,11.03 
363.5,11.08 
364,11.17 
364.5,11.18 
365,11.18 
365.5,11.22 
366,11.20 
366.5,11.28 
367,11.32 
367.5,11.30 
368,11.25 
368.5,11.25 
369,11.13 
369.5,11.18 
370,11.13 
370.5,11.15 
371,11.18 
371.5,11.23 
372,11.22 
372.5,11.25 
373,11.23 
373.5,11.13 
374,11.12 
374.5,11.02 
375,10.90 
375.5,10.85 
376,10.83 
376.5,10.82 
377,10.83 
377.5,10.85 
378,10.87 
378.5,10.87 
379,10.95 
379.5,10.93 
380,10.98 
380.5,10.88 
381,10.92 
381.5,10.85 
382,10.80 
382.5,10.82 
383,10.82 
383.5,10.73 
384,10.68 
384.5,10.70 
385,10.75 
385.5,10.82 
386,10.83 
386.5,10.83 
387,10.80 
387.5,10.83 
388,10.83 
388.5,10.92 
389,10.90 
389.5,10.95 
390,10.95 
390.5,10.93 
391,10.90 
391.5,10.95 
392,10.92 
392.5,10.90 
393,10.90 
393.5,10.90 
394,10.85 
394.5,10.88 
395,10.93 
395.5,10.95 
396,10.95 
396.5,11.03 
397,11.15 
397.5,11.17 
398,11.22 
398.5,11.22 
399,11.32 
399.5,11.32 
400,11.33 
400.5,11.35 
401,11.28 
401.5,11.25 
402,11.25 
402.5,11.32 
403,11.28 
403.5,11.37 
404,11.47 
404.5,11.42 
405,11.30 
405.5,11.25 
406,11.22 
406.5,11.18 
407,11.12 
407.5,11.10 
408,11.03 
408.5,11.00 
409,10.98 
409.5,10.93 
410,10.98 
410.5,11.05 
411,11.07 
411.5,11.10 
412,11.22 
412.5,11.32 
413,11.27 
413.5,11.28 
414,11.32 
414.5,11.37 
415,11.35 
415.5,11.42 
416,11.40 
416.5,11.37 
417,11.35 
417.5,11.35 
418,11.35 
418.5,11.37 
419,11.40 
419.5,11.48 
420,11.45 
420.5,11.45 
421,11.45 
421.5,11.47 
422,11.52 
422.5,11.48 
423,11.55 
423.5,11.55 
424,11.50 
424.5,11.53 
425,11.52 
425.5,11.53 
426,11.50 
426.5,11.53 
427,11.58 
427.5,11.58 
428,11.55 
428.5,11.58 
429,11.63 
429.5,11.75 
430,11.77 
430.5,11.80 
431,11.80 
431.5,11.83 
432,12.00 
432.5,12.07 
433,12.20 
433.5,12.25 
434,12.33 
434.5,12.35 
435,12.38 
435.5,12.47 
436,12.55 
436.5,12.62 
437,12.63 
437.5,12.68 
438,12.72 
438.5,12.77 
439,12.78 
439.5,12.78 
440,12.78 
440.5,12.78 
441,12.78 
441.5,12.78 
442,12.80 
442.5,12.78 
443,12.73 
443.5,12.73 
444,12.65 
444.5,12.68 
445,12.62 
445.5,12.60 
446,12.58 
446.5,12.52 
447,12.48 
447.5,12.42 
448,12.37 
448.5,12.35 
449,12.33 
449.5,12.27 
450,12.25 
450.5,12.20 
451,12.22 
451.5,12.17 
452,12.15 
452.5,12.17 
453,12.17 
453.5,12.15 
454,12.08 
454.5,12.05 
455,12.03 
455.5,12.00 
456,11.90 
456.5,11.87 
457,11.82 
457.5,11.83 
458,11.78 
458.5,11.72 
459,11.63 
459.5,11.60 
460,11.65 
460.5,11.65 
461,11.60 
461.5,11.58 
462,11.53 
462.5,11.50 
463,11.47 
463.5,11.43 
464,11.45 
464.5,11.52 
465,11.53 
465.5,11.55 
466,11.57 
466.5,11.62 
467,11.58 
467.5,11.55 
468,11.55 
468.5,11.48 
469,11.43 
469.5,11.40 
470,11.40 
470.5,11.33 
471,11.23 
471.5,11.20 
472,11.22 
472.5,11.27 
473,11.33 
473.5,11.33 
474,11.30 
474.5,11.37 
475,11.35 
475.5,11.37 
476,11.40 
476.5,11.42 
477,11.40 
477.5,11.33 
478,11.32 
478.5,11.35 
479,11.42 
479.5,11.52 
480,11.55 
480.5,11.58 
481,11.52 
481.5,11.52 
482,11.60 
482.5,11.53 
483,11.50 
483.5,11.58 
484,11.63 
484.5,11.62 
485,11.62 
485.5,11.68 
486,11.72 
486.5,11.68 
487,11.72 
487.5,11.78 
488,11.78 
488.5,11.78 
489,11.82 
489.5,11.88 
490,11.95 
490.5,12.00 
491,11.97 
491.5,11.90 
492,11.87 
492.5,11.78 
493,11.77 
493.5,11.77 
494,11.73 
494.5,11.72 
495,11.75 
495.5,11.77 
496,11.80 
496.5,11.92 
497,11.97 
497.5,12.00 
498,11.95 
498.5,11.93 
499,11.90 
499.5,11.87 
500,11.82 
500.5,11.80 
501,11.82 
501.5,11.82 
502,11.75 
502.5,11.72 
503,11.73 
503.5,11.72 
504,11.70 
504.5,11.68 
505,11.67 
505.5,11.65 
506,11.63 
506.5,11.63 
507,11.62 
507.5,11.60 
508,11.67 
508.5,11.58 
509,11.57 
509.5,11.55 
510,11.60 
510.5,11.60 
511,11.53 
511.5,11.42 
512,11.45 
512.5,11.48 
513,11.45 
513.5,11.42 
514,11.42 
514.5,11.32 
515,11.28 
515.5,11.27 
516,11.33 
516.5,11.38 
517,11.33 
517.5,11.35 
518,11.40 
518.5,11.37 
519,11.35 
519.5,11.33 
520,11.32 
520.5,11.33 
521,11.32 
521.5,11.28 
522,11.25 
522.5,11.27 
523,11.27 
523.5,11.25 
524,11.25 
524.5,11.30 
525,11.32 
525.5,11.33 
526,11.38 
526.5,11.30 
527,11.32 
527.5,11.32 
528,11.33 
528.5,11.30 
529,11.27 
529.5,11.27 
530,11.27 
530.5,11.28 
531,11.23 
531.5,11.27 
532,11.27 
532.5,11.23 
533,11.18 
533.5,11.15 
534,11.13 
534.5,11.08 
535,11.07 
535.5,11.10 
536,11.10 
536.5,11.00 
537,11.00 
537.5,11.03 
538,11.02 
538.5,11.03 
539,11.05 
539.5,11.13 
540,11.18 
540.5,11.22 
541,11.22 
541.5,11.15 
542,11.15 
542.5,11.10 
543,11.10 
543.5,11.13 
544,11.10 
544.5,11.15 
545,11.12 
545.5,11.12 
546,11.08 
546.5,11.08 
547,11.03 
547.5,11.05 
548,11.05 
548.5,11.03 
549,11.02 
549.5,10.95 
550,10.98 
550.5,11.03 
551,11.07 
551.5,11.08 
552,11.12 
552.5,11.13 
553,11.12 
553.5,11.12 
554,11.12 
554.5,11.08 
555,11.15 
555.5,11.22 
556,11.25 
556.5,11.20 
557,11.23 
557.5,11.28 
558,11.32 
558.5,11.33 
559,11.43 
559.5,11.42 
560,11.53 
560.5,11.53 
561,11.60 
561.5,11.68 
562,11.80 
562.5,11.92 
563,12.00 
563.5,12.08 
564,12.08 
564.5,12.12 
565,12.13 
565.5,12.17 
566,12.18 
566.5,12.20 
567,12.18 
567.5,12.20 
568,12.23 
568.5,12.33 
569,12.28 
569.5,12.27 
570,12.32 
570.5,12.37 
571,12.42 
571.5,12.47 
572,12.48 
572.5,12.47 
573,12.42 
573.5,12.32 
574,12.20 
574.5,12.13 
575,12.03 
575.5,12.08 
576,12.10 
576.5,12.15 
577,12.13 
577.5,12.22 
578,12.23 
578.5,12.23 
579,12.25 
579.5,12.22 
580,12.17 
580.5,12.10 
581,12.07 
581.5,11.95 
582,11.92 
582.5,11.85 
583,11.85 
583.5,11.78 
584,11.75 
584.5,11.83 
585,11.78 
585.5,11.77 
586,11.78 
586.5,11.82 
587,11.83 
587.5,11.73 
588,11.65 
588.5,11.53 
589,11.52 
589.5,11.47 
590,11.45 
590.5,11.45 
591,11.35 
591.5,11.33 
592,11.27 
592.5,11.23 
593,11.22 
593.5,11.25 
594,11.30 
594.5,11.33 
595,11.37 
595.5,11.45 
596,11.65 
596.5,11.68 
597,11.67 
597.5,11.67 
598,11.63 