time(s),temp_rise(℃）
0,2.2
5,5.1
10,8.3
15,11.5
20,14.4
25,16.7
30,19.7
35,22.1
40,24.2
45,24.3
50,24.5
55,25.7
60,26.1
65,27.4
70,27.8
75,28.6
80,29.3
85,29.1
90,28.3
95,27.7
100,28.4
105,28
110,27.8
115,28.6
120,29.8
125,30.6
130,30.5
135,29.9
140,28.3
145,27
150,26.2
155,26.3
160,26.7
165,26.7
170,27.5
175,28.2
180,27.9
185,27.9
190,27.3
195,28.1
200,29.2
205,29.5
210,29.5
215,29.4
220,29.3
225,29.4
230,29.3
235,29.5
240,28.7
245,28.1
250,27.6
255,27.5
260,27.6
265,27.6
270,27.5
275,27.8
280,27.9
285,28.1
290,28.8
295,29
300,29.1
305,28.4
310,28.8
315,28.6
320,29
325,29.1
330,29.6
335,30.2
340,31.2
345,32.1
350,31.7
355,31
360,30.3
365,29.7
370,29.7
375,29.3
380,28.8
385,28.4
390,28.2
395,28.5
400,28.9
405,28.9
410,28.8
415,29.3
420,29.4
425,29.6
430,30
435,29.8
440,29.6
445,29.9
450,29.6
455,29
460,29.3
465,29.4
470,29.3
475,28.8
480,28.4
485,28.4
490,28.2
495,28.5
500,28.8
505,28.9
510,29.5
515,29.6
520,29.4
525,29.8
530,30.2
535,30
540,29.5
545,29.7
550,29.9
555,30
560,29.8
565,29.7
570,29.6
575,29.7
580,29.6
585,29.5
590,29.2
595,29.4