time(s),temp_rise(℃）
0,0.5
5,1.3
10,7.3
15,14.4
20,21.7
25,27.8
30,33.7
35,38.7
40,43.4
45,47.9
50,53.4
55,57.7
60,60.2
65,61.1
70,60.8
75,61.4
80,62.1
85,61.7
90,61.2
95,61.7
100,62
105,63
110,63
115,66.3
120,67.7
125,68.4
130,67.7
135,65.4
140,65
145,65.4
150,64.7
155,62.9
160,62.8
165,63.9
170,64.4
175,64.9
180,65
185,65.8
190,67.9
195,71.1
200,72.4
205,73.2
210,74.2
215,74.1
220,72.8
225,74.2
230,70.8
235,68.7
240,68.6
245,69.6
250,70.2
255,68.9
260,69.3
265,69.8
270,75.4
275,76
280,76.9
285,75.3
290,73.6
295,71.8
300,71.7
305,69.2
310,68
315,66.9
320,69.5
325,72.2
330,73.9
335,75.7
340,77
345,77.6
350,77.3
355,77.3
360,77.6
365,77
370,73.8
375,72.9
380,70.3
385,69.6
390,70.3
395,70.5
400,70.1
405,70.3
410,68.1
415,66.8
420,64.3
425,63.8
430,63.8
435,65.4
440,66.9
445,68.5
450,69.2
455,72.3
460,73.8
465,74.7
470,74.5
475,75.1
480,76.7
485,78
490,78.9
495,79.2
500,80.4
505,80.2
510,79.8
515,79.3
520,79.3
525,79.7
530,80.7
535,81.3
540,81.8
545,81.3
550,78.9
555,75.8
560,73
565,70.8
570,69.4
575,70.1